Frame, Time (ms)
    1,     0.000
    2,     9.623
    3,    20.376
    4,    31.515
    5,    43.474
    6,    54.913
    7,    65.352
    8,    76.842
    9,    87.301
   10,    98.193
   11,   110.325
   12,   121.274
   13,   132.319
   14,   142.916
   15,   153.860
   16,   165.088
   17,   175.926
   18,   188.203
   19,   199.283
   20,   209.602
   21,   220.827
   22,   232.315
   23,   242.507
   24,   254.380
   25,   265.437
   26,   276.426
   27,   287.677
   28,   298.658
   29,   309.467
   30,   321.328
   31,   332.403
   32,   343.052
   33,   354.500
   34,   365.435
   35,   376.739
   36,   387.729
   37,   398.167
   38,   409.214
   39,   421.148
   40,   432.615
   41,   443.100
   42,   454.078
   43,   465.708
   44,   475.952
   45,   487.863
   46,   498.867
   47,   509.875
   48,   520.837
   49,   531.751
   50,   542.757
   51,   555.087
   52,   587.527
   53,   621.521
   54,   632.453
   55,   643.169
   56,   654.527
   57,   664.985
   58,   676.166
   59,   687.415
   60,   699.032
   61,   710.511
   62,   720.728
   63,   732.457
   64,   742.714
   65,   754.299
   66,   765.939
   67,   776.066
   68,   787.651
   69,   798.153
   70,   810.079
   71,   821.069
   72,   831.832
   73,   842.953
   74,   854.508
   75,   864.942
   76,   876.766
   77,   887.574
   78,   898.313
   79,   909.225
   80,   921.093
   81,   932.805
   82,   942.981
   83,   954.302
   84,   965.230
   85,   976.290
   86,   987.980
   87,   998.808
   88,  1010.140
   89,  1020.572
   90,  1031.704
   91,  1042.655
   92,  1054.393
   93,  1066.093
   94,  1076.623
   95,  1087.459
   96,  1098.608
   97,  1109.260
   98,  1121.382
   99,  1132.466
  100,  1143.236
  101,  1154.357
  102,  1165.525
  103,  1176.574
  104,  1187.499
  105,  1199.407
  106,  1210.527
  107,  1220.778
  108,  1232.406
  109,  1242.761
  110,  1253.906
  111,  1264.877
  112,  1276.892
  113,  1287.671
  114,  1298.694
  115,  1309.672
  116,  1320.408
  117,  1331.620
  118,  1343.339
  119,  1354.706
  120,  1365.669
  121,  1376.401
  122,  1387.039
  123,  1398.202
  124,  1410.019
  125,  1421.088
  126,  1432.303
  127,  1442.930
  128,  1454.172
  129,  1465.135
  130,  1477.356
  131,  1488.328
  132,  1498.715
  133,  1510.167
  134,  1520.556
  135,  1531.562
  136,  1542.542
  137,  1554.648
  138,  1565.612
  139,  1576.733
  140,  1587.706
  141,  1598.324
  142,  1609.601
  143,  1621.186
  144,  1632.243
  145,  1643.192
  146,  1654.157
  147,  1665.555
  148,  1676.362
  149,  1688.078
  150,  1699.115
  151,  1709.709
  152,  1720.744
  153,  1731.781
  154,  1742.636
  155,  1754.004
  156,  1765.743
  157,  1776.912
  158,  1787.859
  159,  1798.880
  160,  1809.937
  161,  1820.356
  162,  1832.261
  163,  1843.182
  164,  1854.350
  165,  1865.277
  166,  1876.362
  167,  1887.022
  168,  1899.262
  169,  1909.743
  170,  1920.876
  171,  1931.808
  172,  1942.699
  173,  1954.183
  174,  1965.713
  175,  1976.596
  176,  1987.613
  177,  1998.483
  178,  2009.387
  179,  2020.307
  180,  2031.458
  181,  2043.330
  182,  2054.086
  183,  2065.678
  184,  2076.519
  185,  2087.074
  186,  2097.943
  187,  2110.446
  188,  2121.198
  189,  2131.953
  190,  2142.801
  191,  2153.826
  192,  2164.738
  193,  2176.815
  194,  2187.766
  195,  2198.909
  196,  2209.818
  197,  2220.483
  198,  2231.820
  199,  2244.052
  200,  2254.943
  201,  2265.950
  202,  2276.362
  203,  2287.897
  204,  2298.275
  205,  2309.387
  206,  2320.986
  207,  2332.281
  208,  2342.929
  209,  2354.425
  210,  2365.350
  211,  2376.333
  212,  2388.843
  213,  2399.300
  214,  2410.137
  215,  2420.631
  216,  2432.374
  217,  2442.485
  218,  2454.690
  219,  2465.527
  220,  2476.657
  221,  2486.876
  222,  2499.491
  223,  2509.925
  224,  2520.660
  225,  2531.894
  226,  2542.584
  227,  2553.711
  228,  2565.483
  229,  2576.385
  230,  2587.266
  231,  2598.675
  232,  2610.517
  233,  2620.965
  234,  2632.719
  235,  2642.762
  236,  2653.971
  237,  2664.726
  238,  2676.858
  239,  2687.750
  240,  2698.745
  241,  2709.132
  242,  2721.037
  243,  2732.276
  244,  2742.879
  245,  2754.314
  246,  2765.179
  247,  2776.190
  248,  2788.227
  249,  2799.273
  250,  2809.659
  251,  2820.607
  252,  2832.185
  253,  2842.636
  254,  2853.486
  255,  2865.686
  256,  2876.682
  257,  2887.362
  258,  2898.651
  259,  2909.691
  260,  2920.138
  261,  2932.693
  262,  2943.245
  263,  2954.591
  264,  2965.547
  265,  2976.510
  266,  2987.909
  267,  2998.675
  268,  3009.854
  269,  3020.855
  270,  3031.728
  271,  3043.364
  272,  3054.204
  273,  3065.163
  274,  3076.813
  275,  3087.718
  276,  3098.913
  277,  3109.424
  278,  3120.836
  279,  3131.361
  280,  3143.316
  281,  3154.805
  282,  3165.311
  283,  3176.772
  284,  3188.072
  285,  3198.571
  286,  3209.531
  287,  3220.615
  288,  3231.468
  289,  3243.482
  290,  3254.664
  291,  3265.269
  292,  3276.332
  293,  3288.279
  294,  3298.792
  295,  3309.801
  296,  3321.010
  297,  3331.768
  298,  3342.551
  299,  3353.559
  300,  3365.404
  301,  3376.722
  302,  3387.658
  303,  3398.350
  304,  3409.818
  305,  3420.285
  306,  3432.750
  307,  3443.262
  308,  3454.269
  309,  3465.232
  310,  3476.632
  311,  3486.985
  312,  3498.174
  313,  3509.951
  314,  3520.746
  315,  3531.761
  316,  3542.773
  317,  3554.144
  318,  3564.772
  319,  3577.196
  320,  3587.547
  321,  3598.817
  322,  3609.511
  323,  3620.631
  324,  3631.923
  325,  3643.462
  326,  3654.852
  327,  3665.612
  328,  3676.341
  329,  3687.135
  330,  3698.355
  331,  3709.256
  332,  3720.951
  333,  3732.344
  334,  3742.919
  335,  3754.174
  336,  3765.290
  337,  3775.774
  338,  3787.791
  339,  3798.933
  340,  3809.629
  341,  3820.539
  342,  3831.835
  343,  3842.404
  344,  3854.854
  345,  3865.796
  346,  3876.557
  347,  3887.230
  348,  3898.216
  349,  3909.744
  350,  3921.098
  351,  3932.846
  352,  3943.040
  353,  3954.109
  354,  3965.200
  355,  3976.281
  356,  3986.980
  357,  3998.365
  358,  4010.056
  359,  4020.707
  360,  4032.027
  361,  4042.712
  362,  4053.620
  363,  4064.581
  364,  4075.671
  365,  4088.111
  366,  4098.607
  367,  4109.461
  368,  4120.516
  369,  4131.436
  370,  4142.153
  371,  4154.100
  372,  4165.229
  373,  4176.464
  374,  4186.929
  375,  4198.509
  376,  4208.911
  377,  4220.922
  378,  4232.351
  379,  4242.699
  380,  4253.849
  381,  4264.799
  382,  4275.882
  383,  4286.801
  384,  4298.792
  385,  4309.899
  386,  4320.476
  387,  4331.804
  388,  4342.483
  389,  4353.403
  390,  4365.778
  391,  4376.339
  392,  4387.168
  393,  4398.010
  394,  4409.021
  395,  4420.131
  396,  4432.350
  397,  4442.948
  398,  4453.857
  399,  4464.825
  400,  4476.134
  401,  4486.737
  402,  4498.225
  403,  4509.798
  404,  4520.602
  405,  4531.691
  406,  4542.635
  407,  4553.759
  408,  4564.627
  409,  4576.531
  410,  4587.290
  411,  4598.588
  412,  4609.461
  413,  4620.257
  414,  4631.472
  415,  4643.047
  416,  4654.197
  417,  4664.886
  418,  4675.974
  419,  4687.107
  420,  4697.917
  421,  4710.029
  422,  4720.732
  423,  4731.746
  424,  4742.712
  425,  4753.570
  426,  4764.641
  427,  4775.977
  428,  4787.428
  429,  4798.931
  430,  4809.907
  431,  4820.296
  432,  4831.296
  433,  4842.226
  434,  4854.161
  435,  4865.158
  436,  4876.088
  437,  4887.423
  438,  4898.780
  439,  4909.499
  440,  4920.674
  441,  4931.606
  442,  4942.338
  443,  4953.457
  444,  4964.201
  445,  4976.428
  446,  4987.275
  447,  4998.110
  448,  5010.470
  449,  5020.860
  450,  5032.414
  451,  5042.768
  452,  5053.568
  453,  5064.782
  454,  5075.704
  455,  5087.563
  456,  5098.485
  457,  5109.522
  458,  5120.447
  459,  5132.596
  460,  5142.919
  461,  5154.029
  462,  5164.704
  463,  5175.942
  464,  5186.824
  465,  5199.041
  466,  5209.839
  467,  5220.449
  468,  5231.561
  469,  5242.546
  470,  5253.952
  471,  5265.490
  472,  5276.306
  473,  5287.313
  474,  5298.471
  475,  5309.341
  476,  5320.519
  477,  5332.011
  478,  5342.926
  479,  5354.067
  480,  5364.826
  481,  5376.238
  482,  5386.773
  483,  5397.880
  484,  5410.321
  485,  5420.819
  486,  5431.625
  487,  5442.572
  488,  5453.770
  489,  5464.396
  490,  5476.556
  491,  5487.343
  492,  5498.582
  493,  5509.581
  494,  5520.726
  495,  5531.606
  496,  5543.558
  497,  5554.082
  498,  5565.521
  499,  5575.954
  500,  5586.971
  501,  5597.999
  502,  5608.883
  503,  5621.006
  504,  5632.071
  505,  5643.050
  506,  5654.173
  507,  5664.581
  508,  5676.162
  509,  5687.650
  510,  5698.537
  511,  5710.042
  512,  5721.211
  513,  5731.554
  514,  5742.488
  515,  5753.798
  516,  5766.014
  517,  5776.485
  518,  5787.264
  519,  5798.295
  520,  5809.489
  521,  5820.682
  522,  5832.195
  523,  5842.979
  524,  5854.442
  525,  5864.774
  526,  5876.329
  527,  5886.809
  528,  5898.619
  529,  5909.680
  530,  5920.628
  531,  5931.818
  532,  5942.516
  533,  5953.372
  534,  5964.518
  535,  5976.714
  536,  5986.567
  537,  5998.247
  538,  6009.547
  539,  6020.741
  540,  6031.307
  541,  6042.135
  542,  6053.026
  543,  6065.060
  544,  6076.558
  545,  6087.326
  546,  6098.161
  547,  6109.220
  548,  6119.844
  549,  6131.693
  550,  6142.550
  551,  6153.555
  552,  6164.566
  553,  6175.513
  554,  6186.385
  555,  6199.057
  556,  6209.905
  557,  6220.465
  558,  6231.862
  559,  6242.097
  560,  6253.573
  561,  6265.168
  562,  6276.318
  563,  6287.634
  564,  6298.409
  565,  6309.539
  566,  6320.491
  567,  6331.387
  568,  6342.681
  569,  6353.754
  570,  6364.734
  571,  6375.801
  572,  6386.780
  573,  6397.833
  574,  6409.787
  575,  6420.909
  576,  6431.838
  577,  6442.239
  578,  6453.818
  579,  6464.255
  580,  6475.742
  581,  6487.350
  582,  6498.128
  583,  6509.775
  584,  6520.091
  585,  6531.301
  586,  6541.806
  587,  6554.069
  588,  6564.839
  589,  6576.136
  590,  6587.242
  591,  6597.973
  592,  6608.572
  593,  6621.193
  594,  6631.838
  595,  6642.448
  596,  6653.530
  597,  6664.442
  598,  6675.520
  599,  6687.483
  600,  6697.767
  601,  6708.674
  602,  6720.586
  603,  6731.559
  604,  6742.418
  605,  6753.633
  606,  6764.276
  607,  6775.752
  608,  6787.138
  609,  6797.804
  610,  6808.666
  611,  6820.674
  612,  6831.750
  613,  6842.703
  614,  6853.757
  615,  6864.380
  616,  6875.908
  617,  6886.273
  618,  6898.271
  619,  6909.285
  620,  6920.786
  621,  6931.331
  622,  6942.889
  623,  6953.284
  624,  6965.148
  625,  6976.227
  626,  6986.864
  627,  6997.878
  628,  7009.253
  629,  7021.253
  630,  7032.216
  631,  7042.725
  632,  7053.704
  633,  7064.585
  634,  7076.211
  635,  7086.981
  636,  7098.982
  637,  7109.447
  638,  7120.536
  639,  7131.552
  640,  7142.526
  641,  7153.043
  642,  7165.325
  643,  7176.446
  644,  7187.043
  645,  7198.599
  646,  7209.523
  647,  7220.525
  648,  7232.522
  649,  7242.790
  650,  7253.881
  651,  7264.844
  652,  7276.006
  653,  7286.949
  654,  7297.723
  655,  7309.904
  656,  7320.688
  657,  7331.594
  658,  7342.370
  659,  7353.818
  660,  7364.313
  661,  7376.331
  662,  7387.591
  663,  7398.219
  664,  7409.206
  665,  7420.301
  666,  7431.329
  667,  7442.249
  668,  7454.426
  669,  7465.168
  670,  7476.135
  671,  7487.160
  672,  7498.067
  673,  7509.134
  674,  7520.969
  675,  7531.599
  676,  7542.651
  677,  7553.542
  678,  7564.662
  679,  7575.513
  680,  7587.613
  681,  7598.547
  682,  7609.491
  683,  7620.531
  684,  7631.559
  685,  7642.627
  686,  7654.199
  687,  7665.026
  688,  7676.348
  689,  7686.930
  690,  7698.447
  691,  7709.125
  692,  7719.824
  693,  7731.976
  694,  7743.063
  695,  7754.018
  696,  7764.856
  697,  7775.710
  698,  7786.430
  699,  7798.580
  700,  7809.250
  701,  7820.274
  702,  7831.360
  703,  7842.258
  704,  7853.141
  705,  7864.132
  706,  7876.371
  707,  7887.265
  708,  7898.210
  709,  7909.119
  710,  7920.300
  711,  7931.222
  712,  7943.277
  713,  7954.162
  714,  7965.363
  715,  7975.813
  716,  7988.276
  717,  7999.259
  718,  8010.449
  719,  8021.133
  720,  8032.277
  721,  8042.722
  722,  8053.651
  723,  8064.947
  724,  8076.677
  725,  8087.782
  726,  8098.872
  727,  8109.662
  728,  8120.791
  729,  8131.814
  730,  8143.700
  731,  8154.164
  732,  8165.735
  733,  8176.729
  734,  8187.213
  735,  8198.084
  736,  8209.647
  737,  8221.186
  738,  8232.036
  739,  8243.774
  740,  8254.057
  741,  8264.988
  742,  8276.136
  743,  8287.598
  744,  8299.014
  745,  8309.865
  746,  8321.283
  747,  8331.945
  748,  8343.348
  749,  8354.421
  750,  8365.289
  751,  8375.886
  752,  8387.253
  753,  8398.804
  754,  8409.338
  755,  8420.506
  756,  8432.464
  757,  8443.288
  758,  8454.013
  759,  8465.466
  760,  8476.524
  761,  8487.425
  762,  8497.950
  763,  8510.365
  764,  8521.330
  765,  8532.400
  766,  8542.886
  767,  8553.957
  768,  8564.905
  769,  8576.847
  770,  8587.974
  771,  8599.797
  772,  8610.080
  773,  8620.978
  774,  8631.770
  775,  8642.441
  776,  8654.915
  777,  8665.705
  778,  8676.295
  779,  8687.170
  780,  8698.134
  781,  8709.274
  782,  8720.256
  783,  8732.124
  784,  8743.345
  785,  8753.986
  786,  8765.052
  787,  8776.462
  788,  8787.165
  789,  8799.299
  790,  8810.252
  791,  8821.318
  792,  8831.833
  793,  8842.565
  794,  8853.598
  795,  8865.636
  796,  8876.619
  797,  8887.549
  798,  8898.291
  799,  8909.681
  800,  8920.626
  801,  8931.708
  802,  8943.520
  803,  8954.626
  804,  8965.530
  805,  8976.059
  806,  8986.906
  807,  8999.558
  808,  9010.065
  809,  9021.037
  810,  9031.922
  811,  9042.776
  812,  9053.727
  813,  9064.669
  814,  9077.025
  815,  9088.032
  816,  9098.819
  817,  9109.777
  818,  9120.527
  819,  9131.567
  820,  9143.958
  821,  9154.865
  822,  9165.162
  823,  9176.388
  824,  9187.568
  825,  9198.454
  826,  9210.369
  827,  9221.379
  828,  9231.983
  829,  9242.852
  830,  9254.341
  831,  9264.751
  832,  9277.270
  833,  9287.726
  834,  9299.194
  835,  9309.805
  836,  9321.262
  837,  9331.764
  838,  9342.470
  839,  9354.733
  840,  9365.503
  841,  9376.876
  842,  9387.515
  843,  9398.769
  844,  9409.833
  845,  9421.698
  846,  9432.196
  847,  9443.204
  848,  9454.197
  849,  9464.923
  850,  9476.029
  851,  9486.963
  852,  9499.212
  853,  9510.091
  854,  9520.969
  855,  9531.932
  856,  9542.652
  857,  9553.892
  858,  9565.662
  859,  9577.121
  860,  9587.530
  861,  9598.614
  862,  9609.435
  863,  9620.853
  864,  9632.327
  865,  9643.359
  866,  9654.509
  867,  9665.152
  868,  9676.290
  869,  9686.998
  870,  9698.364
  871,  9710.223
  872,  9721.430
  873,  9732.437
  874,  9743.449
  875,  9754.309
  876,  9764.640
  877,  9776.832
  878,  9787.567
  879,  9798.868
  880,  9809.841
  881,  9820.583
  882,  9831.879
  883,  9843.914
  884,  9854.734
  885,  9865.465
  886,  9876.586
  887,  9887.215
  888,  9898.142
  889,  9909.258
  890,  9921.296
  891,  9932.226
  892,  9943.029
  893,  9954.177
  894,  9964.941
  895,  9976.122
  896,  9988.273
  897,  9999.042
  898, 10010.278
  899, 10020.993
  900, 10031.706
  901, 10042.633
  902, 10054.633
  903, 10065.655
  904, 10077.118
  905, 10087.382
  906, 10098.632
  907, 10109.279
  908, 10121.595
  909, 10132.480
  910, 10143.403
  911, 10154.087
  912, 10165.018
  913, 10176.404
  914, 10188.081
  915, 10199.240
  916, 10210.004
  917, 10220.574
  918, 10231.910
  919, 10243.982
  920, 10254.901
  921, 10265.332
  922, 10276.753
  923, 10287.152
  924, 10298.762
  925, 10310.749
  926, 10320.889
  927, 10331.997
  928, 10343.493
  929, 10354.763
  930, 10365.375
  931, 10376.262
  932, 10387.915
  933, 10398.333
  934, 10411.015
  935, 10421.340
  936, 10432.348
  937, 10443.249
  938, 10454.202
  939, 10465.211
  940, 10476.413
  941, 10487.953
  942, 10499.075
  943, 10510.286
  944, 10520.656
  945, 10531.872
  946, 10542.567
  947, 10554.824
  948, 10565.593
  949, 10577.245
  950, 10587.360
  951, 10598.515
  952, 10609.402
  953, 10621.736
  954, 10632.585
  955, 10643.392
  956, 10654.627
  957, 10665.178
  958, 10676.039
  959, 10688.062
  960, 10699.526
  961, 10710.196
  962, 10720.982
  963, 10732.108
  964, 10742.733
  965, 10754.070
  966, 10765.676
  967, 10777.116
  968, 10787.533
  969, 10798.993
  970, 10810.027
  971, 10820.496
  972, 10833.138
  973, 10843.309
  974, 10854.585
  975, 10865.353
  976, 10876.482
  977, 10887.097
  978, 10898.109
  979, 10910.447
  980, 10921.213
  981, 10932.360
  982, 10942.894
  983, 10954.261
  984, 10964.759
  985, 10976.861
  986, 10987.720
  987, 10999.339
  988, 11009.856
  989, 11020.878
  990, 11031.735
  991, 11043.576
  992, 11054.483
  993, 11065.352
  994, 11076.313
  995, 11087.249
  996, 11098.778
  997, 11110.782
  998, 11121.439
  999, 11132.603
 1000, 11143.054
 1001, 11154.557
 1002, 11165.147
 1003, 11175.738
 1004, 11188.022
 1005, 11199.143
 1006, 11209.733
 1007, 11220.937
 1008, 11231.585
 1009, 11243.571
 1010, 11254.757
 1011, 11265.973
 1012, 11276.998
 1013, 11287.967
 1014, 11298.281
 1015, 11309.258
 1016, 11321.350
 1017, 11332.189
 1018, 11343.044
 1019, 11354.434
 1020, 11365.242
 1021, 11376.007
 1022, 11387.345
 1023, 11399.295
 1024, 11409.859
 1025, 11420.900
 1026, 11432.269
 1027, 11442.699
 1028, 11453.713
 1029, 11465.745
 1030, 11476.599
 1031, 11488.873
 1032, 11498.809
 1033, 11509.469
 1034, 11520.855
 1035, 11532.370
 1036, 11543.594
 1037, 11554.853
 1038, 11565.748
 1039, 11576.189
 1040, 11587.174
 1041, 11598.093
 1042, 11610.279
 1043, 11621.231
 1044, 11631.890
 1045, 11643.983
 1046, 11654.761
 1047, 11665.889
 1048, 11676.242
 1049, 11687.369
 1050, 11698.814
 1051, 11710.197
 1052, 11721.340
 1053, 11731.892
 1054, 11742.466
 1055, 11755.086
 1056, 11765.456
 1057, 11776.395
 1058, 11787.559
 1059, 11798.351
 1060, 11809.309
 1061, 11821.451
 1062, 11831.894
 1063, 11842.602
 1064, 11853.599
 1065, 11866.222
 1066, 11876.449
 1067, 11887.680
 1068, 11898.688
 1069, 11909.496
 1070, 11920.729
 1071, 11932.413
 1072, 11942.907
 1073, 11953.908
 1074, 11965.786
 1075, 11976.587
 1076, 11987.585
 1077, 11998.907
 1078, 12009.710
 1079, 12020.734
 1080, 12032.471
 1081, 12042.821
 1082, 12054.101
 1083, 12065.078
 1084, 12076.747
 1085, 12087.900
 1086, 12098.908
 1087, 12109.634
 1088, 12120.601
 1089, 12132.106
 1090, 12142.488
 1091, 12154.483
 1092, 12165.452
 1093, 12176.435
 1094, 12187.419
 1095, 12198.151
 1096, 12210.142
 1097, 12221.293
 1098, 12232.203
 1099, 12243.225
 1100, 12254.365
 1101, 12265.286
 1102, 12276.912
 1103, 12288.336
 1104, 12298.770
 1105, 12309.682
 1106, 12320.804
 1107, 12332.748
 1108, 12343.124
 1109, 12354.474
 1110, 12365.613
 1111, 12376.098
 1112, 12387.580
 1113, 12399.484
 1114, 12409.888
 1115, 12420.884
 1116, 12432.676
 1117, 12443.276
 1118, 12454.839
 1119, 12465.227
 1120, 12476.211
 1121, 12487.207
 1122, 12498.737
 1123, 12510.121
 1124, 12521.234
 1125, 12532.115
 1126, 12543.042
 1127, 12555.171
 1128, 12565.583
 1129, 12576.425
 1130, 12588.107
 1131, 12598.931
 1132, 12609.570
 1133, 12620.447
 1134, 12632.293
 1135, 12642.874
 1136, 12654.202
 1137, 12665.355
 1138, 12676.632
 1139, 12687.640
 1140, 12699.100
 1141, 12709.608
 1142, 12720.717
 1143, 12732.691
 1144, 12743.363
 1145, 12754.818
 1146, 12765.302
 1147, 12776.824
 1148, 12787.249
 1149, 12798.195
 1150, 12810.168
 1151, 12821.261
 1152, 12832.585
 1153, 12843.146
 1154, 12854.133
 1155, 12864.745
 1156, 12876.853
 1157, 12887.797
 1158, 12898.881
 1159, 12909.610
 1160, 12920.978
 1161, 12932.215
 1162, 12943.391
 1163, 12954.176
 1164, 12964.950
 1165, 12975.860
 1166, 12986.813
 1167, 12999.304
 1168, 13009.777
 1169, 13021.295
 1170, 13032.394
 1171, 13043.214
 1172, 13054.047
 1173, 13065.009
 1174, 13076.115
 1175, 13086.971
