Frame, Time (ms)
    1,     0.000
    2,     9.865
    3,    20.555
    4,    31.504
    5,    42.731
    6,    54.636
    7,    65.633
    8,    76.249
    9,    87.211
   10,    98.286
   11,   109.182
   12,   121.726
   13,   132.044
   14,   143.695
   15,   154.031
   16,   165.227
   17,   176.256
   18,   188.270
   19,   198.760
   20,   209.811
   21,   220.710
   22,   231.728
   23,   242.625
   24,   253.566
   25,   265.983
   26,   277.137
   27,   287.514
   28,   298.622
   29,   309.413
   30,   320.580
   31,   332.334
   32,   343.436
   33,   354.243
   34,   365.406
   35,   376.582
   36,   387.314
   37,   399.002
   38,   409.914
   39,   420.802
   40,   431.859
   41,   442.835
   42,   453.822
   43,   464.833
   44,   476.806
   45,   487.559
   46,   498.757
   47,   509.455
   48,   520.964
   49,   531.560
   50,   543.419
   51,   554.356
   52,   565.886
   53,   576.275
   54,   587.200
   55,   598.255
   56,   610.192
   57,   621.024
   58,   632.065
   59,   643.251
   60,   653.855
   61,   665.131
   62,   675.961
   63,   688.180
   64,   699.275
   65,   709.638
   66,   721.151
   67,   732.105
   68,   743.074
   69,   754.151
   70,   765.481
   71,   775.973
   72,   788.448
   73,   798.889
   74,   809.885
   75,   820.890
   76,   831.687
   77,   842.893
   78,   853.709
   79,   865.812
   80,   876.861
   81,   887.525
   82,   898.427
   83,   909.974
   84,   920.446
   85,   932.282
   86,   943.848
   87,   954.160
   88,   965.193
   89,   976.205
   90,   987.180
   91,   998.636
   92,  1010.012
   93,  1020.459
   94,  1031.405
   95,  1043.504
   96,  1054.424
   97,  1065.432
   98,  1076.387
   99,  1087.384
  100,  1098.315
  101,  1109.372
  102,  1120.806
  103,  1131.826
  104,  1142.772
  105,  1154.620
  106,  1165.586
  107,  1176.639
  108,  1187.579
  109,  1198.487
  110,  1209.630
  111,  1221.506
  112,  1231.829
  113,  1242.901
  114,  1253.878
  115,  1265.868
  116,  1276.870
  117,  1287.775
  118,  1298.597
  119,  1309.552
  120,  1321.071
  121,  1332.031
  122,  1342.859
  123,  1354.047
  124,  1364.787
  125,  1376.949
  126,  1387.807
  127,  1398.743
  128,  1409.925
  129,  1421.773
  130,  1432.222
  131,  1443.225
  132,  1454.029
  133,  1464.953
  134,  1476.173
  135,  1486.889
  136,  1499.146
  137,  1509.812
  138,  1521.300
  139,  1531.679
  140,  1542.641
  141,  1553.675
  142,  1565.662
  143,  1577.791
  144,  1587.521
  145,  1598.441
  146,  1609.443
  147,  1620.633
  148,  1632.786
  149,  1643.239
  150,  1654.192
  151,  1665.176
  152,  1676.105
  153,  1687.098
  154,  1698.017
  155,  1709.899
  156,  1721.609
  157,  1731.827
  158,  1742.882
  159,  1754.532
  160,  1764.738
  161,  1776.722
  162,  1787.961
  163,  1798.566
  164,  1809.568
  165,  1820.865
  166,  1831.437
  167,  1843.670
  168,  1854.912
  169,  1865.260
  170,  1876.851
  171,  1887.339
  172,  1898.482
  173,  1909.424
  174,  1921.433
  175,  1932.133
  176,  1943.269
  177,  1953.964
  178,  1964.962
  179,  1976.375
  180,  1986.953
  181,  1998.829
  182,  2010.194
  183,  2020.793
  184,  2031.705
  185,  2042.714
  186,  2053.632
  187,  2066.252
  188,  2077.231
  189,  2087.404
  190,  2098.466
  191,  2109.694
  192,  2120.603
  193,  2132.243
  194,  2143.193
  195,  2154.469
  196,  2165.053
  197,  2176.120
  198,  2187.077
  199,  2198.025
  200,  2210.030
  201,  2221.492
  202,  2231.773
  203,  2242.973
  204,  2253.751
  205,  2265.795
  206,  2276.860
  207,  2287.767
  208,  2298.714
  209,  2309.583
  210,  2320.610
  211,  2331.553
  212,  2343.488
  213,  2354.504
  214,  2365.282
  215,  2376.837
  216,  2387.125
  217,  2398.171
  218,  2409.437
  219,  2421.489
  220,  2431.991
  221,  2442.951
  222,  2453.898
  223,  2465.357
  224,  2476.404
  225,  2487.665
  226,  2498.886
  227,  2509.705
  228,  2520.587
  229,  2531.621
  230,  2543.569
  231,  2554.485
  232,  2565.402
  233,  2576.678
  234,  2587.366
  235,  2598.265
  236,  2609.206
  237,  2621.685
  238,  2632.191
  239,  2643.032
  240,  2654.021
  241,  2665.173
  242,  2675.997
  243,  2687.519
  244,  2698.857
  245,  2709.875
  246,  2721.064
  247,  2731.682
  248,  2742.651
  249,  2753.739
  250,  2765.851
  251,  2777.111
  252,  2787.976
  253,  2798.463
  254,  2809.493
  255,  2820.349
  256,  2831.885
  257,  2843.177
  258,  2853.812
  259,  2864.685
  260,  2877.237
  261,  2888.127
  262,  2898.602
  263,  2909.539
  264,  2920.612
  265,  2931.895
  266,  2991.018
  267,  3121.735
  268,  3132.537
  269,  3143.329
  270,  3154.362
  271,  3164.935
  272,  3176.364
  273,  3188.158
  274,  3198.864
  275,  3209.770
  276,  3220.700
  277,  3231.701
  278,  3242.615
  279,  3253.572
  280,  3266.155
  281,  3276.635
  282,  3287.456
  283,  3298.376
  284,  3309.442
  285,  3320.411
  286,  3331.686
  287,  3342.812
  288,  3353.754
  289,  3365.652
  290,  3376.751
  291,  3388.497
  292,  3398.493
  293,  3409.794
  294,  3420.440
  295,  3431.830
  296,  3442.822
  297,  3453.739
  298,  3464.743
  299,  3476.721
  300,  3487.557
  301,  3498.674
  302,  3509.675
  303,  3520.563
  304,  3532.034
  305,  3543.054
  306,  3553.893
  307,  3564.825
  308,  3575.849
  309,  3588.036
  310,  3598.824
  311,  3609.620
  312,  3620.973
  313,  3632.105
  314,  3643.244
  315,  3654.007
  316,  3664.998
  317,  3675.897
  318,  3688.410
  319,  3698.784
  320,  3709.750
  321,  3720.720
  322,  3732.156
  323,  3743.240
  324,  3754.040
  325,  3765.141
  326,  3776.421
  327,  3787.602
  328,  3798.943
  329,  3809.875
  330,  3820.827
  331,  3831.815
  332,  3842.842
  333,  3853.677
  334,  3864.825
  335,  3876.576
  336,  3887.565
  337,  3898.450
  338,  3909.787
  339,  3920.887
  340,  3931.274
  341,  3943.229
  342,  3954.199
  343,  3965.156
  344,  3976.773
  345,  3987.140
  346,  3998.215
  347,  4010.234
  348,  4021.099
  349,  4031.968
  350,  4043.089
  351,  4053.759
  352,  4064.896
  353,  4077.193
  354,  4087.630
  355,  4098.803
  356,  4109.676
  357,  4121.564
  358,  4131.501
  359,  4142.418
  360,  4154.497
  361,  4165.315
  362,  4176.293
  363,  4187.263
  364,  4198.237
  365,  4209.236
  366,  4221.161
  367,  4232.094
  368,  4243.082
  369,  4254.159
  370,  4265.056
  371,  4276.071
  372,  4287.922
  373,  4298.930
  374,  4309.842
  375,  4320.736
  376,  4331.648
  377,  4343.043
  378,  4353.583
  379,  4365.521
  380,  4376.406
  381,  4387.451
  382,  4398.427
  383,  4409.374
  384,  4420.240
  385,  4432.158
  386,  4443.292
  387,  4454.173
  388,  4465.049
  389,  4476.046
  390,  4487.246
  391,  4498.850
  392,  4509.867
  393,  4520.746
  394,  4531.970
  395,  4543.224
  396,  4553.753
  397,  4565.630
  398,  4576.827
  399,  4587.672
  400,  4598.608
  401,  4609.455
  402,  4620.634
  403,  4654.377
  404,  4666.247
  405,  4812.424
  406,  4820.774
  407,  4876.532
  408,  4887.468
  409,  4898.503
  410,  4909.093
  411,  4921.182
  412,  4931.971
  413,  4943.115
  414,  4953.903
  415,  4964.939
  416,  4976.360
  417,  4988.117
  418,  4998.831
  419,  5010.131
  420,  5021.222
  421,  5031.520
  422,  5042.585
  423,  5053.387
  424,  5065.388
  425,  5076.666
  426,  5087.602
  427,  5098.262
  428,  5109.222
  429,  5120.670
  430,  5132.079
  431,  5143.319
  432,  5153.978
  433,  5165.161
  434,  5175.956
  435,  5187.486
  436,  5198.785
  437,  5209.877
  438,  5220.976
  439,  5231.715
  440,  5242.798
  441,  5253.625
  442,  5264.596
  443,  5276.800
  444,  5287.787
  445,  5298.680
  446,  5309.416
  447,  5320.418
  448,  5331.566
  449,  5342.988
  450,  5353.842
  451,  5364.830
  452,  5375.823
  453,  5387.643
  454,  5398.598
  455,  5410.055
  456,  5420.494
  457,  5431.672
  458,  5443.456
  459,  5454.259
  460,  5465.255
  461,  5476.316
  462,  5487.099
  463,  5498.225
  464,  5509.012
  465,  5521.419
  466,  5531.932
  467,  5542.565
  468,  5554.424
  469,  5565.377
  470,  5576.374
  471,  5587.212
  472,  5598.282
  473,  5609.525
  474,  5620.636
  475,  5632.110
  476,  5643.629
  477,  5653.897
  478,  5665.099
  479,  5675.919
  480,  5687.010
  481,  5698.942
  482,  5709.668
  483,  5720.594
  484,  5732.045
  485,  5742.621
  486,  5753.504
  487,  5765.469
  488,  5776.440
  489,  5787.646
  490,  5798.763
  491,  5809.500
  492,  5820.597
  493,  5832.205
  494,  5843.549
  495,  5853.754
  496,  5864.842
  497,  5876.871
  498,  5888.169
  499,  6061.956
  500,  6065.389
  501,  6121.587
  502,  6132.248
  503,  6143.318
  504,  6154.031
  505,  6165.257
  506,  6176.031
  507,  6188.471
  508,  6199.081
  509,  6210.352
  510,  6220.748
  511,  6231.916
  512,  6243.303
  513,  6253.633
  514,  6265.607
  515,  6276.816
  516,  6287.488
  517,  6298.597
  518,  6309.263
  519,  6320.717
  520,  6332.365
  521,  6343.545
  522,  6354.139
  523,  6365.506
  524,  6376.153
  525,  6387.016
  526,  6398.997
  527,  6410.096
  528,  6420.847
  529,  6432.020
  530,  6442.891
  531,  6453.657
  532,  6466.470
  533,  6477.047
  534,  6488.057
  535,  6499.091
  536,  6509.836
  537,  6520.976
  538,  6532.219
  539,  6543.827
  540,  6554.288
  541,  6565.215
  542,  6576.276
  543,  6587.476
  544,  6598.437
  545,  6610.554
  546,  6621.028
  547,  6632.007
  548,  6642.850
  549,  6653.850
  550,  6664.924
  551,  6676.804
  552,  6687.837
  553,  6699.002
  554,  6709.628
  555,  6720.800
  556,  6731.533
  557,  6742.730
  558,  6754.468
  559,  6765.643
  560,  6776.354
  561,  6787.483
  562,  6798.706
  563,  6809.156
  564,  6821.673
  565,  6832.817
  566,  6843.070
  567,  6854.096
  568,  6865.071
  569,  6875.840
  570,  6887.996
  571,  6899.073
  572,  6909.823
  573,  6921.013
  574,  6931.729
  575,  6943.095
  576,  6953.652
  577,  6966.284
  578,  6976.491
  579,  6987.997
  580,  6998.364
  581,  7009.370
  582,  7021.024
  583,  7032.346
  584,  7043.551
  585,  7054.276
  586,  7065.596
  587,  7076.156
  588,  7087.406
  589,  7099.725
  590,  7110.452
  591,  7120.910
  592,  7131.780
  593,  7142.931
  594,  7153.822
  595,  7165.313
  596,  7176.689
  597,  7187.571
  598,  7198.561
  599,  7209.447
  600,  7220.893
  601,  7231.489
  602,  7243.936
  603,  7253.916
  604,  7264.921
  605,  7275.886
  606,  7288.102
  607,  7299.054
  608,  7309.871
  609,  7321.909
  610,  7331.991
  611,  7343.010
  612,  7354.030
  613,  7365.052
  614,  7376.064
  615,  7388.087
  616,  7398.838
  617,  7410.117
  618,  7421.307
  619,  7431.719
  620,  7443.606
  621,  7454.156
  622,  7465.243
  623,  7476.006
  624,  7487.252
  625,  7499.243
  626,  7509.943
  627,  7520.845
  628,  7531.879
  629,  7543.172
  630,  7554.126
  631,  7565.170
  632,  7576.118
  633,  7587.122
  634,  7599.010
  635,  7610.535
  636,  7621.465
  637,  7632.500
  638,  7645.563
  639,  7655.865
  640,  7667.364
  641,  7678.719
  642,  7689.165
  643,  7700.262
  644,  7711.529
  645,  7722.574
  646,  7733.998
  647,  7745.054
  648,  7756.143
  649,  7767.068
  650,  7778.082
  651,  7789.171
  652,  7800.043
  653,  7811.885
  654,  7823.024
  655,  7833.548
  656,  7845.147
  657,  7855.847
  658,  7866.632
  659,  7878.436
  660,  7889.888
  661,  7900.476
  662,  7912.097
  663,  7922.423
  664,  7933.488
  665,  7945.071
  666,  7956.183
  667,  7966.678
  668,  7978.148
  669,  7989.554
  670,  8000.468
  671,  8011.470
  672,  8022.448
  673,  8033.445
  674,  8044.563
  675,  8056.329
  676,  8066.843
  677,  8077.771
  678,  8089.386
  679,  8100.683
  680,  8111.610
  681,  8122.820
  682,  8133.479
  683,  8144.355
  684,  8156.623
  685,  8167.227
  686,  8178.624
  687,  8189.083
  688,  8200.829
  689,  8211.125
  690,  8222.073
  691,  8234.011
  692,  8245.171
  693,  8256.178
  694,  8267.275
  695,  8278.277
  696,  8289.032
  697,  8300.626
  698,  8311.588
  699,  8323.145
  700,  8333.591
  701,  8344.670
  702,  8355.553
  703,  8366.984
  704,  8378.663
  705,  8389.251
  706,  8400.308
  707,  8411.301
  708,  8422.530
  709,  8433.617
  710,  8445.572
  711,  8456.598
  712,  8467.078
  713,  8478.384
  714,  8489.311
  715,  8499.878
  716,  8512.381
  717,  8522.788
  718,  8533.729
  719,  8545.251
  720,  8555.696
  721,  8566.817
  722,  8577.902
  723,  8589.741
  724,  8600.918
  725,  8611.325
  726,  8622.678
  727,  8633.832
  728,  8645.257
  729,  8656.745
  730,  8667.497
  731,  8678.176
  732,  8689.252
  733,  8700.419
  734,  8712.199
  735,  8723.034
  736,  8734.183
  737,  8745.150
  738,  8756.284
  739,  8767.345
  740,  8778.222
  741,  8790.159
  742,  8801.239
  743,  8811.957
  744,  8822.555
  745,  8833.739
  746,  8844.671
  747,  8857.071
  748,  8867.664
  749,  8878.588
  750,  8889.459
  751,  8900.434
  752,  8911.633
  753,  8923.537
  754,  8934.637
  755,  8945.548
  756,  8956.523
  757,  8967.710
  758,  8978.432
  759,  8989.409
  760,  9000.975
  761,  9011.853
  762,  9022.780
  763,  9034.070
  764,  9044.829
  765,  9055.662
  766,  9067.569
  767,  9078.490
  768,  9089.696
  769,  9100.509
  770,  9111.934
  771,  9122.310
  772,  9134.468
  773,  9145.834
  774,  9156.344
  775,  9167.199
  776,  9178.443
  777,  9189.059
  778,  9200.132
  779,  9212.338
  780,  9222.893
  781,  9234.490
  782,  9245.433
  783,  9256.312
  784,  9266.617
  785,  9278.552
  786,  9289.639
  787,  9300.927
  788,  9311.704
  789,  9322.669
  790,  9333.733
  791,  9345.530
  792,  9356.659
  793,  9367.553
  794,  9378.673
  795,  9389.158
  796,  9400.041
  797,  9412.729
  798,  9423.001
  799,  9434.604
  800,  9445.754
  801,  9456.207
  802,  9467.455
  803,  9477.879
  804,  9489.854
  805,  9501.171
  806,  9511.976
  807,  9522.952
  808,  9533.730
  809,  9545.011
  810,  9556.982
  811,  9567.325
  812,  9578.018
  813,  9589.254
  814,  9601.226
  815,  9612.141
  816,  9623.274
  817,  9634.272
  818,  9645.211
  819,  9656.213
  820,  9667.343
  821,  9678.167
  822,  9689.465
  823,  9700.607
  824,  9712.520
  825,  9722.935
  826,  9733.968
  827,  9745.510
  828,  9755.931
  829,  9766.969
  830,  9779.443
  831,  9789.641
  832,  9800.666
  833,  9811.823
  834,  9822.840
  835,  9833.421
  836,  9844.937
  837,  9856.404
  838,  9868.064
  839,  9878.448
  840,  9889.297
  841,  9900.421
  842,  9911.225
  843,  9923.188
  844,  9934.133
  845,  9945.374
  846,  9956.010
  847,  9967.497
  848,  9978.578
  849,  9990.067
  850, 10000.369
  851, 10012.004
  852, 10022.314
  853, 10034.513
  854, 10045.458
  855, 10056.042
  856, 10066.737
  857, 10078.800
  858, 10089.639
  859, 10100.601
  860, 10111.458
  861, 10122.478
  862, 10133.329
  863, 10145.529
  864, 10156.292
  865, 10167.422
  866, 10177.893
  867, 10189.925
  868, 10200.884
  869, 10211.573
  870, 10222.729
  871, 10233.685
  872, 10244.794
  873, 10256.405
  874, 10267.514
  875, 10278.013
  876, 10289.216
  877, 10301.566
  878, 10312.047
  879, 10323.091
  880, 10333.811
  881, 10345.135
  882, 10355.612
  883, 10368.183
  884, 10378.894
  885, 10389.508
  886, 10400.969
  887, 10411.703
  888, 10422.399
  889, 10434.332
  890, 10445.497
  891, 10456.170
  892, 10467.242
  893, 10478.143
  894, 10489.227
  895, 10500.397
  896, 10512.470
  897, 10523.213
  898, 10534.398
  899, 10545.333
  900, 10555.849
  901, 10566.732
  902, 10579.257
  903, 10590.637
  904, 10600.816
  905, 10611.771
  906, 10622.484
  907, 10633.431
  908, 10644.572
  909, 10655.379
  910, 10666.775
  911, 10678.483
  912, 10689.207
  913, 10700.599
  914, 10711.686
  915, 10722.077
  916, 10733.253
  917, 10745.152
  918, 10755.941
  919, 10767.096
  920, 10777.785
  921, 10788.746
  922, 10799.699
  923, 10810.620
  924, 10822.781
  925, 10833.731
  926, 10844.649
  927, 10855.550
  928, 10866.675
  929, 10877.502
  930, 10889.531
  931, 10900.574
  932, 10911.348
  933, 10922.495
  934, 10933.319
  935, 10944.247
  936, 10956.280
  937, 10967.146
  938, 10978.130
  939, 10988.955
  940, 10999.980
  941, 11010.776
  942, 11022.854
  943, 11033.745
  944, 11044.791
  945, 11055.608
  946, 11066.754
  947, 11077.583
  948, 11088.573
  949, 11101.039
  950, 11111.773
  951, 11122.586
  952, 11133.897
  953, 11144.784
  954, 11155.122
  955, 11167.713
  956, 11178.290
  957, 11189.286
  958, 11199.997
  959, 11211.166
  960, 11222.240
  961, 11234.255
  962, 11245.306
  963, 11255.775
  964, 11266.955
  965, 11277.730
  966, 11289.325
  967, 11299.630
  968, 11312.185
  969, 11323.064
  970, 11333.419
  971, 11344.503
  972, 11355.562
  973, 11366.693
  974, 11378.381
  975, 11389.351
  976, 11400.189
  977, 11411.499
  978, 11422.336
  979, 11433.584
  980, 11445.533
  981, 11455.784
  982, 11467.305
  983, 11477.713
  984, 11488.680
  985, 11500.330
  986, 11511.353
  987, 11522.733
  988, 11533.767
  989, 11544.877
  990, 11555.611
  991, 11566.885
  992, 11577.392
  993, 11589.273
  994, 11600.873
  995, 11611.284
  996, 11622.230
  997, 11633.573
  998, 11645.266
  999, 11656.191
 1000, 11667.836
 1001, 11678.073
 1002, 11690.144
 1003, 11700.994
 1004, 11712.084
 1005, 11723.262
 1006, 11733.951
 1007, 11745.064
 1008, 11757.171
 1009, 11768.077
 1010, 11778.408
 1011, 11789.216
 1012, 11801.256
 1013, 11811.890
 1014, 11823.470
 1015, 11834.321
 1016, 11845.435
 1017, 11855.656
 1018, 11867.854
 1019, 11878.383
 1020, 11889.421
 1021, 11900.537
 1022, 11912.339
 1023, 11923.566
 1024, 11934.512
 1025, 11945.335
 1026, 11955.974
 1027, 11966.889
 1028, 11978.875
 1029, 11990.036
 1030, 12001.081
 1031, 12011.854
 1032, 12024.164
 1033, 12033.869
 1034, 12045.938
 1035, 12056.922
 1036, 12067.898
 1037, 12078.744
 1038, 12089.422
 1039, 12100.879
 1040, 12111.480
 1041, 12123.240
 1042, 12134.177
 1043, 12145.214
 1044, 12156.222
 1045, 12167.243
 1046, 12178.437
 1047, 12189.544
 1048, 12200.652
 1049, 12211.408
 1050, 12222.540
 1051, 12234.638
 1052, 12245.537
 1053, 12256.407
 1054, 12267.406
 1055, 12278.729
 1056, 12289.776
 1057, 12300.874
 1058, 12311.837
 1059, 12322.662
 1060, 12333.590
 1061, 12345.598
 1062, 12356.765
 1063, 12367.748
 1064, 12378.950
 1065, 12389.597
 1066, 12400.777
 1067, 12411.722
 1068, 12422.989
 1069, 12433.887
 1070, 12445.711
 1071, 12456.904
 1072, 12467.930
 1073, 12478.816
 1074, 12489.247
 1075, 12500.446
 1076, 12512.798
 1077, 12523.094
 1078, 12534.824
 1079, 12545.273
 1080, 12556.267
 1081, 12567.048
 1082, 12578.114
 1083, 12590.313
 1084, 12601.275
 1085, 12612.108
 1086, 12622.967
 1087, 12633.871
 1088, 12646.187
 1089, 12657.201
 1090, 12668.196
 1091, 12678.703
 1092, 12689.681
 1093, 12700.653
 1094, 12711.502
 1095, 12723.423
 1096, 12734.160
 1097, 12745.088
 1098, 12756.622
 1099, 12767.076
 1100, 12778.691
 1101, 12790.043
 1102, 12801.552
 1103, 12812.516
 1104, 12822.941
 1105, 12833.755
 1106, 12844.945
 1107, 12855.993
 1108, 12868.131
 1109, 12878.985
 1110, 12890.035
 1111, 12900.809
 1112, 12911.817
 1113, 12922.750
 1114, 12935.006
 1115, 12945.341
 1116, 12957.029
 1117, 12967.366
 1118, 12978.452
 1119, 12989.281
 1120, 13000.460
 1121, 13012.425
 1122, 13023.236
 1123, 13034.401
 1124, 13045.485
 1125, 13056.449
 1126, 13067.313
 1127, 13079.338
 1128, 13090.096
 1129, 13101.414
 1130, 13112.348
 1131, 13123.180
 1132, 13134.257
 1133, 13145.385
 1134, 13156.760
 1135, 13167.744
 1136, 13178.779
 1137, 13189.565
 1138, 13200.626
 1139, 13211.751
 1140, 13222.677
 1141, 13234.325
 1142, 13245.662
 1143, 13256.751
 1144, 13267.809
 1145, 13278.243
 1146, 13289.011
 1147, 13301.240
 1148, 13312.009
 1149, 13323.041
 1150, 13333.955
 1151, 13345.161
 1152, 13355.914
 1153, 13368.204
 1154, 13379.043
 1155, 13389.587
 1156, 13400.973
 1157, 13412.047
 1158, 13422.771
 1159, 13434.472
 1160, 13445.441
 1161, 13456.508
 1162, 13467.567
 1163, 13478.453
 1164, 13489.308
 1165, 13500.055
 1166, 13512.429
 1167, 13523.427
 1168, 13534.367
 1169, 13545.573
 1170, 13556.429
 1171, 13567.583
 1172, 13579.445
 1173, 13590.442
 1174, 13600.928
 1175, 13612.001
